O(n)
5 0.341
105 2.733
205 5.107
305 7.73
405 10.941
505 12.847
605 16.178
705 18.108
805 21.18
905 23.881
1005 26.324
1105 29.007
1205 31.488
1305 34.182
1405 36.757
1505 39.437
1605 42.073
1705 44.708
1805 47.336
1905 49.968
2005 52.585
2105 55.655
2205 57.681
2305 60.525
2405 63.026
2505 65.719
2605 68.282
2705 71.075
2805 74.372
2905 76.26
3005 78.877
3105 81.446
3205 83.994
3305 86.665
3405 89.249
3505 91.924
3605 94.997
3705 97.442
3805 99.826
3905 102.416
4005 104.925
4105 108.173
4205 110.192
4305 112.849
4405 115.457
4505 118.062
4605 120.669
4705 123.383
4805 125.92
4905 128.597
5005 131.125
5105 134.035
5205 136.429
5305 138.947
5405 141.62
5505 144.329
5605 146.87
5705 149.37
5805 152.114
5905 155.013
6005 158.809
6105 159.156
6205 161.751
6305 164.376
6405 166.997
6505 169.695
6605 172.416
6705 174.802
6805 177.407
6905 180.031
7005 182.655
7105 185.26
7205 188.017
7305 190.434
7405 193.078
7505 196.077
7605 198.554
7705 200.888
7805 203.538
7905 206.115
8005 208.76
8105 211.417
8205 214.142
8305 216.534
8405 219.319
8505 221.895
8605 224.494
8705 226.974
8805 229.764
8905 232.211
9005 234.902
9105 237.419
9205 240.199
9305 243.002
9405 248.127
9505 248.643
9605 251.526
9705 253.898
9805 256.64
9905 258.991
